# velocity_mag[m/s]	histogram
1.083110234641187600e-07 2.973054750858855763e-06
1.270626705476337715e-07 3.457181720827104258e-06
1.490607486692709597e-07 4.184022863520941055e-06
1.748673052288317423e-07 5.032526120416745696e-06
2.051416936449160328e-07 5.989120822714476852e-06
2.406574197299750521e-07 7.181677239003407098e-06
2.823219046408835783e-07 8.724055292231256158e-06
3.311996693452805582e-07 1.051981020455924399e-05
3.885395329631051080e-07 1.270055496225705406e-05
4.558065198966328428e-07 1.514642575491300790e-05
5.347192909711150470e-07 1.792591145244157205e-05
6.272940549457110575e-07 2.096025803982070105e-05
7.358960823268465029e-07 2.468721921661414290e-05
8.633001376537333867e-07 2.909092609339737037e-05
1.012761374291346649e-06 3.421513989930897179e-05
1.188098503081551565e-06 4.017737643736019743e-05
1.393791359798192388e-06 4.672385314304398300e-05
1.635095364239129830e-06 5.390511555176594324e-05
1.918175795366814905e-06 6.216777246791359854e-05
2.250265313205920205e-06 7.197498701394511571e-05
2.639848752157466750e-06 8.406494256287325162e-05
3.096879907169247355e-06 9.949168967257962515e-05
3.633035851614776424e-06 1.174236438285713655e-04
4.262015284662107850e-06 1.394566665772481928e-04
4.999888530860416790e-06 1.838752347546834765e-04
5.865508134378141837e-06 2.109322985499881634e-04
6.880990538510184927e-06 2.350861916618496045e-04
8.072281157289102436e-06 2.728948528636085998e-04
9.469817276690085302e-06 3.171597312881732633e-04
1.110930572245012081e-05 3.639406957188714986e-04
1.303263516379060544e-05 4.023839113085170109e-04
1.528894636225849296e-05 4.215761461059501503e-04
1.793588771037376618e-05 4.059762885112992194e-04
2.104108813889617947e-05 3.358601522860282969e-04
2.468388502525766689e-05 2.284475254354552398e-04
2.895735125094643726e-05 1.192105627416213329e-04
3.397067319883674514e-05 4.447370940272032946e-05
3.985194044791810352e-05 1.193067270037918154e-05
4.675141844168092940e-05 2.328518350865060871e-06
5.484538774631558616e-05 3.566794659626282282e-07
